time,flux,flux_err,centroid_col,centroid_row,cadenceno,quality
2420.0006367159403,7798.650390625,4.31328010559082,389.7624269008823,1770.9922635273556,0,0
2420.0075813185713,7793.97705078125,4.3124895095825195,389.7631412234257,1770.9917152519113,1,0
2420.014525921202,7786.3134765625,4.310699939727783,389.76382884866587,1770.9927691498128,2,0
2420.021470523833,7787.01220703125,4.310421466827393,389.76236043060106,1770.9956877557916,3,0
2420.0284151259984,7780.2294921875,4.309886932373047,389.7637363922289,1770.9933110619113,4,0
2420.0353597281637,7793.32861328125,4.312841415405273,389.7641854234237,1770.9919455043023,5,0
2420.042304330329,7807.82177734375,4.315515041351318,389.76465819547946,1770.9934824292284,6,0
2420.0492489320286,7825.4541015625,4.32072639465332,389.7642832111817,1770.9927205351064,7,0
2420.056193533728,7838.353515625,4.323846817016602,389.76537177158986,1770.9922375161248,8,0
2420.0631381349613,7875.255859375,4.3331804275512695,389.7661592979618,1770.9916606519605,9,0
2420.070082736195,7912.21240234375,4.344027519226074,389.76564320225157,1770.9926323433767,10,0
2420.077027337429,7953.3916015625,4.354998588562012,389.76518165740515,1770.9921080049135,11,0
2420.083971938664,7989.935546875,4.362585067749023,389.7656836713766,1770.9919870658814,12,0
2420.0909165394323,8035.1630859375,4.374301433563232,389.7654078244586,1770.99177680953,13,0
2420.0978611401997,8082.01708984375,4.388227462768555,389.7655044412838,1770.9926729911804,14,0
2420.1048057405033,8125.1767578125,4.397190093994141,389.7650255970994,1770.992600067084,15,0
2420.111750340806,8167.89501953125,4.408255100250244,389.7650331155847,1770.9920876744225,16,0
2420.1186949411094,8187.810546875,4.413348197937012,389.76512668874796,1770.9922034393555,17,0
2420.125639541411,8231.33984375,4.423574924468994,389.76489079540346,1770.9934737937679,18,0
2420.132584141248,8262.4365234375,4.432613849639893,389.76461800821676,1770.99226648527,19,0
2420.139528741084,8272.2060546875,4.43466854095459,389.76284144895743,1770.9928954914678,20,0
2420.146473340922,8284.5380859375,4.4381818771362305,389.763413637828,1770.9932245836176,21,0
2420.1534179407586,8307.8837890625,4.444596290588379,389.763041624061,1770.9926366937736,22,0
2420.1603625401303,8317.9326171875,4.447473049163818,389.7623215004397,1770.9932040016904,23,0
2420.1673071395016,8336.9794921875,4.451487064361572,389.76248260965974,1770.9918127143374,24,0
2420.174251738408,8343.037109375,4.452285289764404,389.76173399500425,1770.9934427223125,25,0
2420.1811963377795,8350.5078125,4.453869342803955,389.7606366588332,1770.992937167141,26,0
2420.1881409366842,8348.892578125,4.453579902648926,389.7606140252274,1770.9924924549077,27,0
2420.19508553559,8351.1650390625,4.456020355224609,389.7598734528175,1770.9928839208671,28,0
2420.20203013403,8351.1396484375,4.454644203186035,389.75912469463196,1770.9935912951685,29,0
2420.2089747329364,8350.5556640625,4.455906867980957,389.759176642729,1770.992429845524,30,0
2420.2159193313755,8355.3154296875,4.455796241760254,389.75823640347306,1770.9941130947004,31,0
2420.222863929349,8368.8984375,4.4593729972839355,389.75776631648733,1770.993370570992,32,0
2420.22980852779,8359.2431640625,4.456991672515869,389.75852686125893,1770.9933144535573,33,0
2420.236753125764,8350.7197265625,4.454835891723633,389.75712831010077,1770.992691655361,34,0
2420.2436977237394,8364.0859375,4.458822250366211,389.75670407821576,1770.9926069992798,35,0
2420.250642321713,8369.556640625,4.458280086517334,389.7566419211542,1770.9929996004573,36,0
2420.257586919686,8362.4794921875,4.456214904785156,389.75646309697015,1770.9921859262197,37,0
2420.264531517196,8362.4033203125,4.4565534591674805,389.75555932877,1770.9937869725875,38,0
2420.2714761147054,8376.359375,4.460414886474609,389.7561648218654,1770.9929412911874,39,0
2420.278420712214,8370.4228515625,4.458281993865967,389.75623536324014,1770.9923497062236,40,0
2420.2853653092566,8361.4404296875,4.457404613494873,389.75524504240485,1770.9939646008902,41,0
2420.292309906765,8359.8759765625,4.456477642059326,389.7547009850636,1770.99412067945,42,0
2420.299254503808,8351.5146484375,4.453273296356201,389.75595361953077,1770.9925953848133,43,0
2420.306199100851,8342.88671875,4.452365398406982,389.7551746634366,1770.9928443592771,44,0
2420.313143697894,8329.544921875,4.448414325714111,389.7555065621727,1770.9937277528256,45,0
2420.32008829447,8329.234375,4.44836950302124,389.754850374059,1770.9920991191252,46,0
2420.327032891514,8326.099609375,4.447330951690674,389.75484434183454,1770.9935145351074,47,0
2420.3339774880924,8333.478515625,4.450294017791748,389.7547876888063,1770.9935526208703,48,0
2420.340922084204,8341.80859375,4.4513959884643555,389.7550674097625,1770.9934972689982,49,0
2420.3478666807814,8344.7255859375,4.451651096343994,389.7556782554919,1770.9929381757388,50,0
2420.354811277358,8346.626953125,4.451849460601807,389.75574926851067,1770.9926516771313,51,0
2420.3617558734704,8363.779296875,4.456691265106201,389.75554222818937,1770.9936211871725,52,0
2420.368700469581,8392.1630859375,4.463378429412842,389.7551251661852,1770.9938614786338,53,0
2420.375645065693,8408.388671875,4.468477249145508,389.7544343279591,1770.993478428612,54,0
2420.382589661339,8427.48828125,4.474503517150879,389.7554049376645,1770.9933815129943,55,0
2420.3895342574506,8450.8564453125,4.4798994064331055,389.7548144960518,1770.9926493999315,56,0
2420.396478853097,8469.46484375,4.484878063201904,389.75396454513987,1770.9940686726513,57,0
2420.4034234487435,8493.2939453125,4.489272594451904,389.75591490897057,1770.9935032505828,58,0
2420.4103680443895,8524.888671875,4.49736213684082,389.7552996891799,1770.9943874559167,59,0
2420.4173126400347,8529.7724609375,4.498889923095703,389.75442937075184,1770.9926444127457,60,0
2420.424257235216,8537.609375,4.501064300537109,389.7556058187281,1770.993316862905,61,0
2420.431201830397,8543.7509765625,4.50166654586792,389.75497418874886,1770.99276899486,62,0
2420.4381464260423,8567.740234375,4.507635593414307,389.7569707460341,1770.9940377252299,63,0
2420.4450910212217,8584.345703125,4.512269973754883,389.7555214292743,1770.993057736762,64,0
2420.4520356159373,8587.06640625,4.511928081512451,389.75654058750354,1770.9933752561367,65,0
2420.458980211117,8576.6748046875,4.510321140289307,389.7556561994201,1770.9928186679726,66,0
2420.4659248058324,8575.1171875,4.510061740875244,389.7558321907044,1770.9941748059998,67,0
2420.4728694010128,8564.7666015625,4.508640289306641,389.75443553819184,1770.9935090103886,68,0
2420.479813995727,8556.6142578125,4.504590034484863,389.75617642710154,1770.994145125761,69,0
2420.486758589976,8554.234375,4.504246711730957,389.7553328809311,1770.9925325953338,70,0
2420.493703184691,8566.513671875,4.507741451263428,389.7551863234729,1770.9934955144772,71,0
2420.500647779406,8574.671875,4.509864330291748,389.75572044085595,1770.9940544393496,72,0
2420.507592373655,8573.79296875,4.509704113006592,389.7549606677507,1770.9940993902146,73,0
2420.5145369679035,8588.3603515625,4.512529373168945,389.75644823440973,1770.9938848722284,74,0
2420.521481562152,8584.283203125,4.512471675872803,389.75620338899466,1770.9937591478613,75,0
2420.528426156401,8570.3388671875,4.508670330047607,389.7559781642935,1770.9935500533156,76,0
2420.53537075065,8555.43359375,4.504222393035889,389.755360409349,1770.993554768026,77,0
2420.542315344899,8539.171875,4.500369548797607,389.75514432955,1770.9933466693074,78,0
2420.549259938683,8536.328125,4.500148773193359,389.7560993663627,1770.994064144511,79,0
2420.556204532466,8519.474609375,4.495699405670166,389.75538271216726,1770.994008378036,80,0
2420.56314912625,8520.8779296875,4.49776554107666,389.7560847285258,1770.9937582582372,81,0
2420.5700937200336,8517.8154296875,4.495477199554443,389.7556013114975,1770.993546632013,82,0
2420.577038313816,8512.6474609375,4.494537830352783,389.7565711049655,1770.994620890091,83,0
2420.5839829076003,8506.0693359375,4.492598056793213,389.7551324436308,1770.9929432496788,84,0
2420.590927500918,8523.7900390625,4.496842384338379,389.7559867983806,1770.993796136239,85,0
2420.5978720942358,8524.2197265625,4.501106262207031,389.7552518739401,1770.9937528719581,86,0
2420.604816688018,8530.7578125,4.498038291931152,389.75592639502094,1770.993759029968,87,0
2420.611761281336,8551.62890625,4.503695011138916,389.7542937476333,1770.9934069249987,88,0
2420.6187058746536,8568.62890625,4.5079755783081055,389.75538467148175,1770.994613686645,89,0
2420.6256504675066,8583.7509765625,4.512946605682373,389.7548714066287,1770.993413426571,90,0
2420.6325950608243,8601.283203125,4.516719818115234,389.75498409334705,1770.9932914417407,91,0
2420.6395396536764,8613.373046875,4.519472122192383,389.7545103296235,1770.994293559258,92,0
2420.646484246993,8597.9228515625,4.515849590301514,389.7551185053837,1770.9930045508868,93,0
2420.653428839845,8584.9931640625,4.51176643371582,389.7546481134527,1770.9936046373903,94,0
2420.660373432698,8579.7978515625,4.511085510253906,389.7553213346202,1770.994293359429,95,0
2420.6673180255502,8575.328125,4.50960636138916,389.75519260833676,1770.9938350124914,96,0
2420.6742626179366,8580.9345703125,4.511727333068848,389.75374116494976,1770.9939169620504,97,0
2420.6812072107887,8590.947265625,4.513745307922363,389.75380400696025,1770.9939466443886,98,0
2420.6881518036407,8583.7001953125,4.51296329498291,389.75462437095473,1770.9939755222556,99,0
2420.695096396026,8600.626953125,4.515673637390137,389.7541806460103,1770.9934195733654,100,0
2420.702040988413,8620.1826171875,4.520712375640869,389.7536670943474,1770.9936180705606,101,0
2420.708985580799,8632.390625,4.523244857788086,389.75396786570906,1770.9942008054013,102,0
2420.7159301731863,8643.5556640625,4.527910232543945,389.75415069931074,1770.99396020645,103,0
2420.7228747655727,8642.68359375,4.526400089263916,389.75322155673126,1770.9941374514865,104,0
2420.729819357959,8649.859375,4.5283966064453125,389.7542653577675,1770.9943016969262,105,0
2420.736763949879,8667.0185546875,4.532585144042969,389.75332453213946,1770.9935600090287,106,0
2420.743708542266,8686.0458984375,4.538285255432129,389.75427084678967,1770.9931851193112,107,0
2420.750653134187,8698.3896484375,4.543941497802734,389.75368727609987,1770.9951164659722,108,0
2420.7575977261076,8697.333984375,4.542093753814697,389.75353214857955,1770.9938759990378,109,0
2420.7645423180284,8700.2744140625,4.540152072906494,389.7535910830758,1770.9942948555804,110,0
2420.771486909949,8703.1572265625,4.541104793548584,389.75458897818265,1770.994297646508,111,0
2420.77843150187,8723.8154296875,4.54714298248291,389.75385746990406,1770.9941482005527,112,0
2420.785376093325,8747.400390625,4.551799774169922,389.75463554294817,1770.9938768673517,113,0
2420.7923206852456,8757.0830078125,4.554426193237305,389.7540233893256,1770.9942562538383,114,0
2420.7992652766998,8785.7578125,4.561461448669434,389.7538530251263,1770.9938892162343,115,0
2420.8062098686214,8807.1611328125,4.567956924438477,389.75342082035405,1770.9930273582188,116,0
2420.8131544600774,8858.716796875,4.579286098480225,389.75356564120284,1770.994318677887,117,0
2420.8200990515325,8893.9873046875,4.58902645111084,389.75234166988474,1770.9942440828343,118,0
2420.827043642987,8935.873046875,4.599466323852539,389.75265424395985,1770.9936373907226,119,0
2420.8339882344417,8945.451171875,4.601444721221924,389.75236876104105,1770.9947329077977,120,0
2420.840932825431,8980.919921875,4.611539840698242,389.75166926966045,1770.9938744717806,121,0
2420.847877416886,9002.5263671875,4.616174221038818,389.7515484239884,1770.993371720091,122,0
2420.854822008341,9041.078125,4.62393856048584,389.7507808733014,1770.9945717592793,123,0
2420.861766599331,9070.2314453125,4.631375789642334,389.7508506549423,1770.994185321639,124,0
2420.868711190319,9107.921875,4.640251636505127,389.74953690819785,1770.9946641024533,125,0
2420.8756557813103,9141.5908203125,4.647890090942383,389.74998601576715,1770.9942651091674,126,0
2420.8826003722997,9161.15625,4.653611183166504,389.7492105206212,1770.995177025717,127,0
2420.8895449632882,9171.7265625,4.655589580535889,389.74929772540503,1770.9948494694547,128,0
2420.8964895542777,9156.7421875,4.652802467346191,389.74881035418423,1770.9942393708252,129,0
2420.903434145267,9143.3515625,4.648508071899414,389.74836653625863,1770.9943586739405,130,0
2420.9103787357917,9108.611328125,4.64030647277832,389.7468387579501,1770.9943920577389,131,0
2420.91732332678,9084.6064453125,4.6349077224731445,389.74719519717905,1770.994157201071,132,0
2420.9242679173035,9083.4130859375,4.634130954742432,389.7472342615344,1770.9946528834591,133,0
2420.9312125078277,9050.119140625,4.6259660720825195,389.74881257498123,1770.994658199262,134,0
2420.9381570983523,9047.015625,4.624701023101807,389.7481806231909,1770.9944736057103,135,0
2420.945101688876,9035.98046875,4.6218366622924805,389.74746023695525,1770.9936548427704,136,0
2420.9520462793994,9005.41015625,4.615435600280762,389.7472226269961,1770.994907791974,137,0
2420.9589908699227,8985.2978515625,4.610440254211426,389.7471845724814,1770.9949286561055,138,0
2420.9659354604473,8973.66796875,4.608265399932861,389.7476102158594,1770.9943506587633,139,0
2420.9728800505054,8946.2373046875,4.600285530090332,389.7475251773916,1770.994020715735,140,0
2420.979824641029,8949.5693359375,4.601052761077881,389.7476847773805,1770.9945995029493,141,0
2420.9867692310872,8966.357421875,4.606369495391846,389.7477643480676,1770.9937688489417,142,0
2420.99371382161,8977.30859375,4.608608245849609,389.74809020646563,1770.9940052918253,143,0
2421.000658411668,9005.4599609375,4.614786148071289,389.747399143895,1770.9945930425672,144,0
2421.007603001727,9049.853515625,4.627832412719727,389.7479285378033,1770.994329829881,145,0
2421.0145475917852,9100.08984375,4.638108730316162,389.7472447124492,1770.99429170648,146,0
2421.0214921818433,9146.451171875,4.650286674499512,389.7475616803702,1770.9941462858717,147,0
2421.0284367719014,9183.8369140625,4.6579766273498535,389.7458797713406,1770.9953886668675,148,0
2421.035381361494,9212.9833984375,4.665167331695557,389.7471920829449,1770.9949531526343,149,0
2421.042325951553,9217.193359375,4.665902614593506,389.74693464526746,1770.9952580909849,150,0
2421.0492705411443,9227.76171875,4.668386936187744,389.7468096302417,1770.9935152242067,151,0
2421.0562151312024,9230.0078125,4.671395301818848,389.7469384249298,1770.9945085268223,152,0
2421.063159720795,9219.7841796875,4.667189121246338,389.7486293976661,1770.9947835499704,153,0
2421.070104310388,9201.4921875,4.6623687744140625,389.74799556569246,1770.9944907988768,154,0
2421.0770488999797,9197.1611328125,4.661474227905273,389.7474446082314,1770.9950495230196,155,0
2421.083993489571,9198.1787109375,4.662614345550537,389.74927077411087,1770.99461492329,156,0
2421.0909380791645,9205.8251953125,4.6645002365112305,389.7482656464068,1770.9947470181976,157,0
2421.097882668757,9194.572265625,4.661003112792969,389.74869441752,1770.9947057720344,158,0
2421.1048272578846,9180.56640625,4.658088207244873,389.7481733630557,1770.995785755885,159,0
2421.111771847476,9161.841796875,4.653170108795166,389.7496393121053,1770.9942731420103,160,0
2421.118716436603,9127.0224609375,4.645694255828857,389.7505623051387,1770.9949006312386,161,0
2421.125661026196,9112.35546875,4.641377925872803,389.7505455005234,1770.9949190080604,162,0
2421.1326056153225,9112.3330078125,4.642984867095947,389.7496530795264,1770.994117690557,163,0
2421.139550204449,9127.0625,4.646953105926514,389.7497247485104,1770.9948431764994,164,0
2421.1464947935756,9126.0478515625,4.644584655761719,389.7497678154842,1770.9954153448025,165,0
2421.1534393827023,9137.5380859375,4.648139953613281,389.748702459773,1770.9945769212231,166,0
2421.160383971829,9130.2763671875,4.645415782928467,389.7495854882392,1770.9947259934672,167,0
2421.167328560956,9106.08984375,4.639711856842041,389.7501715113866,1770.994918816402,168,0
2421.1742731500826,9099.021484375,4.6389546394348145,389.75068941256455,1770.995190455801,169,0
2421.1812177387437,9066.125,4.629997253417969,389.7487075112035,1770.9939681791616,170,0
2421.1881623278714,9047.552734375,4.626275539398193,389.74833240917076,1770.9944922897616,171,0
2421.1951069165325,9040.013671875,4.625044345855713,389.7484494156784,1770.993877082565,172,0
2421.20205150566,9030.869140625,4.625977993011475,389.7501037227457,1770.9948499733985,173,0
2421.2089960943204,9024.078125,4.619797229766846,389.7478536629326,1770.9938434700957,174,0
2421.215940682981,9018.73828125,4.618636131286621,389.7481280869702,1770.9945539752412,175,0
2421.2228852716426,9003.5263671875,4.615581512451172,389.7487985020463,1770.9952023124945,176,0
2421.2298298603037,8991.138671875,4.612076759338379,389.74863675318994,1770.9941819886465,177,0
2421.2367744489648,8990.4228515625,4.6113057136535645,389.74705279913206,1770.9948988686203,178,0
2421.2437190376245,8973.23828125,4.6066155433654785,389.74742526633014,1770.9952374899005,179,0
2421.250663626286,8958.5537109375,4.60320520401001,389.74738260663065,1770.9954326511936,180,0
2421.257608214482,8950.8125,4.601446151733398,389.74670170384866,1770.994149462361,181,0
2421.2645528031435,8938.5,4.599173069000244,389.7481371388844,1770.9944651215817,182,0
2421.2714973913385,8926.7958984375,4.596108913421631,389.747110100121,1770.9944005476293,183,0
2421.278441979999,8920.220703125,4.594536781311035,389.7473712459655,1770.9952853287375,184,0
2421.2853865681955,8911.4453125,4.591939449310303,389.7463171907944,1770.9942478798005,185,0
2421.292331156391,8897.4150390625,4.589390754699707,389.7471682709811,1770.9944780920557,186,0
2421.2992757445872,8902.3271484375,4.589757919311523,389.74658475874185,1770.9933917850658,187,0
2421.306220332782,8880.017578125,4.5842413902282715,389.7461181717467,1770.9945425846115,188,0
2421.313164920977,8879.7626953125,4.583796977996826,389.74605949112697,1770.995073379278,189,0
2421.3201095091727,8867.4853515625,4.581549644470215,389.74664658841306,1770.9947786273424,190,0
2421.327054097368,8847.734375,4.576725959777832,389.74718133352576,1770.9935243811312,191,0
2421.333998685097,8844.513671875,4.576435089111328,389.7465738934646,1770.993860484883,192,0
2421.3409432732933,8851.1796875,4.5772223472595215,389.7464595880305,1770.9945004034266,193,0
2421.347887861022,8860.857421875,4.579309463500977,389.74617049720956,1770.995208966219,194,0
2421.3548324492185,8857.8818359375,4.579946994781494,389.7466280141351,1770.9954345225017,195,0
2421.3617770369483,8859.4638671875,4.5812907218933105,389.747550633586,1770.9948021251384,196,0
2421.368721624677,8863.6162109375,4.5809006690979,389.7462382701932,1770.9943585449282,197,0
2421.375666212408,8868.34765625,4.581783294677734,389.7469681348409,1770.9947179783912,198,0
2421.3826108001376,8880.1650390625,4.5845842361450195,389.74733897506724,1770.9957458049557,199,0
2421.3895553878683,8875.802734375,4.583608627319336,389.7479862351799,1770.9940394881482,200,0
2421.396499975597,8881.361328125,4.584652423858643,389.7477072819669,1770.9948292110496,201,0
2421.4034445633265,8894.4384765625,4.587426662445068,389.7486541807639,1770.9946355391278,202,0
2421.4103891510567,8896.951171875,4.591089725494385,389.74964491092015,1770.995089812384,203,0
2421.417333738321,8892.333984375,4.5896124839782715,389.7487595646981,1770.9951690792905,204,0
2421.4242783260515,8879.265625,4.584016799926758,389.74875282420925,1770.9947705042296,205,0
2421.4312229133157,8871.7216796875,4.582940101623535,389.7505093451388,1770.9944376460362,206,0
2421.438167501044,8863.1806640625,4.581480026245117,389.74875554311603,1770.9949434784517,207,0
2421.4451120883086,8861.900390625,4.5825042724609375,389.75023097472433,1770.9952100569658,208,0
2421.4520566755727,8864.615234375,4.581265449523926,389.75112901349905,1770.9952867935478,209,0
2421.459001262837,8872.1669921875,4.583761692047119,389.7510115774468,1770.9941019148498,210,0
2421.465945850101,8876.220703125,4.58355188369751,389.7494993639464,1770.9943028096377,211,0
