time,flux,flux_err,centroid_col,centroid_row,cadenceno,quality
2420.0006367159403,2803.758544921875,0.9649365544319153,380.6097365145412,1778.7273373863623,0,0
2420.0075813185713,2809.6513671875,0.9658203721046448,380.60979076402344,1778.7268211699475,1,0
2420.014525921202,2819.505615234375,0.9672118425369263,380.60714850384613,1778.7260271209213,2,0
2420.021470523833,2830.578369140625,0.9690821766853333,380.6110510241612,1778.7263233491597,3,0
2420.0284151259984,2842.032958984375,0.9707357883453369,380.60893967386363,1778.7274318409018,4,0
2420.0353597281637,2856.88623046875,0.9727143049240112,380.6099702967833,1778.727429500326,5,0
2420.042304330329,2869.703369140625,0.9744898080825806,380.6091611242381,1778.7283335060538,6,0
2420.0492489320286,2885.85498046875,0.9766812920570374,380.6106540473813,1778.728368935336,7,0
2420.056193533728,2898.7919921875,0.9787080883979797,380.61115930957254,1778.7293963891566,8,0
2420.0631381349613,2912.79638671875,0.980553388595581,380.6122243072382,1778.7307529464774,9,0
2420.070082736195,2928.548095703125,0.9838512539863586,380.61128930309815,1778.7295876211815,10,0
2420.077027337429,2944.083984375,0.9853252172470093,380.6101736703858,1778.7296209136637,11,0
2420.083971938664,2955.299560546875,0.987004280090332,380.60994864262483,1778.7320349598203,12,0
2420.0909165394323,2966.8251953125,0.9885731935501099,380.612406654374,1778.7337977368509,13,0
2420.0978611401997,2980.119140625,0.9903400540351868,380.6115316872851,1778.73176020125,14,0
2420.1048057405033,2991.029296875,0.9927709102630615,380.61227852779166,1778.7311536960908,15,0
2420.111750340806,3000.641357421875,0.9933375120162964,380.6095899592836,1778.7299940612265,16,0
2420.1186949411094,3003.5986328125,0.9938886165618896,380.6109031618668,1778.7354006594771,17,0
2420.125639541411,3003.1513671875,0.9939908385276794,380.612398139625,1778.7341657369757,18,0
2420.132584141248,3000.37158203125,0.9932851791381836,380.61334252870046,1778.7340421783695,19,0
2420.139528741084,2997.622314453125,0.9930316209793091,380.6107838708796,1778.731038150985,20,0
2420.146473340922,2992.89013671875,0.9920797944068909,380.61343251124265,1778.7296129903457,21,0
2420.1534179407586,2987.639404296875,0.9913547039031982,380.611839133483,1778.7333339777902,22,0
2420.1603625401303,2981.27685546875,0.9908883571624756,380.6135874357972,1778.7325724241502,23,0
2420.1673071395016,2973.530517578125,0.9892787933349609,380.6104341446044,1778.7329800833768,24,0
2420.174251738408,2965.2197265625,0.988978922367096,380.6114008079303,1778.7318305976412,25,0
2420.1811963377795,2957.767822265625,0.9871379137039185,380.61283876938637,1778.7306021346276,26,0
2420.1881409366842,2946.16357421875,0.985394299030304,380.6098981348,1778.7327867122137,27,0
2420.19508553559,2938.034423828125,0.9844763875007629,380.61149425698216,1778.7308723673132,28,0
2420.20203013403,2928.46044921875,0.9827746152877808,380.61194405712655,1778.73024214793,29,0
2420.2089747329364,2916.2001953125,0.9810635447502136,380.6113889937612,1778.7300016111674,30,0
2420.2159193313755,2909.93017578125,0.9798324108123779,380.6103769812363,1778.726122672512,31,0
2420.222863929349,2899.266357421875,0.9785407185554504,380.6101325261181,1778.728295271968,32,0
2420.22980852779,2889.404541015625,0.9773561954498291,380.61095559040825,1778.7301462634277,33,0
2420.236753125764,2879.23876953125,0.9762099385261536,380.61102499016715,1778.7289776796877,34,0
2420.2436977237394,2869.134521484375,0.9744360446929932,380.61036037892035,1778.7305551447203,35,0
2420.250642321713,2861.28955078125,0.9731026887893677,380.6101076650607,1778.7288930681616,36,0
2420.257586919686,2852.208251953125,0.9720308184623718,380.6101062636608,1778.728078668588,37,0
2420.264531517196,2844.96728515625,0.9705016016960144,380.6112699213693,1778.7269433150814,38,0
2420.2714761147054,2840.393798828125,0.9698015451431274,380.61113812955483,1778.72892590445,39,0
2420.278420712214,2834.340087890625,0.9693461656570435,380.6109846866156,1778.728498915157,40,0
2420.2853653092566,2832.10498046875,0.9692789316177368,380.61024918790906,1778.7260926098895,41,0
2420.292309906765,2827.471923828125,0.9679741859436035,380.6097147677673,1778.727111321999,42,0
2420.299254503808,2824.043701171875,0.9676023721694946,380.6089925156197,1778.7279644364057,43,0
2420.306199100851,2824.43017578125,0.9676268696784973,380.6101017026627,1778.7267679598701,44,0
2420.313143697894,2825.3427734375,0.9675489068031311,380.61093188679706,1778.7243637443764,45,0
2420.32008829447,2825.523193359375,0.9676976203918457,380.60752336884207,1778.7263683813635,46,0
2420.327032891514,2827.50439453125,0.9683362245559692,380.61071638443536,1778.7270843079516,47,0
2420.3339774880924,2828.1240234375,0.9683700799942017,380.6097875539969,1778.729644145462,48,0
2420.340922084204,2831.029052734375,0.9686229228973389,380.60678696871287,1778.7283596075379,49,0
2420.3478666807814,2832.228515625,0.9684963822364807,380.61069922618753,1778.7277779372944,50,0
2420.354811277358,2837.25927734375,0.9700610637664795,380.6066292598678,1778.7280366328218,51,0
2420.3617558734704,2839.275146484375,0.969676673412323,380.60920098522786,1778.7285389056342,52,0
2420.368700469581,2842.952392578125,0.9706740975379944,380.6084981651415,1778.728817017128,53,0
2420.375645065693,2846.54541015625,0.970933735370636,380.6098960231829,1778.7275552455571,54,0
2420.382589661339,2852.87841796875,0.9718896746635437,380.61075112957303,1778.7289623525799,55,0
2420.3895342574506,2859.880126953125,0.9727342128753662,380.61009395251557,1778.727347632951,56,0
2420.396478853097,2867.641845703125,0.9737785458564758,380.6092957653005,1778.7296140758585,57,0
2420.4034234487435,2876.41748046875,0.9750249981880188,380.61163325634845,1778.7300314831323,58,0
2420.4103680443895,2884.698486328125,0.9764968156814575,380.6084914535238,1778.7303165299843,59,0
2420.4173126400347,2894.4111328125,0.9777305126190186,380.6090115889814,1778.7280080498665,60,0
2420.424257235216,2901.416259765625,0.9791042804718018,380.6119632859889,1778.733399296785,61,0
2420.431201830397,2919.61572265625,0.9815957546234131,380.6122272844318,1778.7306028140913,62,0
2420.4381464260423,2944.8291015625,0.9850342273712158,380.6115514072011,1778.7333698524894,63,0
2420.4450910212217,2942.620361328125,0.9845932722091675,380.611607423797,1778.7320012223333,64,0
2420.4520356159373,2933.490478515625,0.9832444190979004,380.6100105545545,1778.7294089736597,65,0
2420.458980211117,2924.74072265625,0.9822365641593933,380.61044657758794,1778.730364195204,66,0
2420.4659248058324,2919.49658203125,0.9814898371696472,380.61018298701515,1778.7318170696874,67,0
2420.4728694010128,2917.932861328125,0.981521487236023,380.61116507872777,1778.7313348464147,68,0
2420.479813995727,2919.697998046875,0.9817490577697754,380.61167225232697,1778.7325147128756,69,0
2420.486758589976,2921.423583984375,0.9815639853477478,380.6115263078851,1778.7306977928827,70,0
2420.493703184691,2924.25439453125,0.9819191694259644,380.6092419302945,1778.731596346756,71,0
2420.500647779406,2929.84228515625,0.9827224016189575,380.613268268264,1778.7298433735355,72,0
2420.507592373655,2933.732666015625,0.9833828210830688,380.6106703728722,1778.7308048175503,73,0
2420.5145369679035,2937.907470703125,0.9840804934501648,380.610778269807,1778.7321569433645,74,0
2420.521481562152,2938.6201171875,0.9842511415481567,380.61095579538926,1778.7329283717072,75,0
2420.528426156401,2940.450927734375,0.9848379492759705,380.6087444766465,1778.7327932733715,76,0
2420.53537075065,2938.662109375,0.9842132329940796,380.6129769737662,1778.7312654331918,77,0
2420.542315344899,2937.10498046875,0.9843947291374207,380.612194233265,1778.7303601116428,78,0
2420.549259938683,2935.522216796875,0.9834417104721069,380.6090256112015,1778.7300499730266,79,0
2420.556204532466,2934.62451171875,0.9836184978485107,380.6124683340915,1778.7328707107592,80,0
2420.56314912625,2929.30615234375,0.9826920032501221,380.6132977345676,1778.7315692142074,81,0
2420.5700937200336,2928.1875,0.9828401803970337,380.60936965807224,1778.7314882954447,82,0
2420.577038313816,2927.889404296875,0.9824032783508301,380.6130930827545,1778.7292257524098,83,0
2420.5839829076003,2926.8681640625,0.982511043548584,380.61167047007507,1778.7338037823295,84,0
2420.590927500918,2927.9013671875,0.9825142025947571,380.6115154801096,1778.7303704713327,85,0
2420.5978720942358,2927.119873046875,0.9823697805404663,380.61115303681675,1778.7327528687017,86,0
2420.604816688018,2929.891357421875,0.9837355613708496,380.61181790162937,1778.7320565063806,87,0
2420.611761281336,2929.284912109375,0.9826383590698242,380.6106271570933,1778.7309121843077,88,0
2420.6187058746536,2928.176513671875,0.982718288898468,380.6113860849107,1778.731925989323,89,0
2420.6256504675066,2933.26708984375,0.9834153652191162,380.61185087853494,1778.7287979717512,90,0
2420.6325950608243,2931.147705078125,0.98330157995224,380.61122084497407,1778.7301204968173,91,0
2420.6395396536764,2932.058349609375,0.983307957649231,380.60938224673976,1778.7291415242528,92,0
2420.646484246993,2932.68798828125,0.9840959906578064,380.61124712885197,1778.7316501669852,93,0
2420.653428839845,2929.46044921875,0.9835562705993652,380.6105861999878,1778.7310207153034,94,0
2420.660373432698,2930.447265625,0.9827772974967957,380.6112259054152,1778.7310678967046,95,0
2420.6673180255502,2928.54345703125,0.9827934503555298,380.61114705606786,1778.7295690395385,96,0
2420.6742626179366,2924.3369140625,0.9826555252075195,380.6094122868482,1778.7318814811597,97,0
2420.6812072107887,2923.005126953125,0.9815016984939575,380.6106421787406,1778.7323174958065,98,0
2420.6881518036407,2922.8857421875,0.9817691445350647,380.61174788600346,1778.7315509930763,99,0
2420.695096396026,2921.506591796875,0.9823692440986633,380.60831985568075,1778.7306431102588,100,0
2420.702040988413,2926.5390625,0.9822936654090881,380.6124190108804,1778.7328191913055,101,0
2420.708985580799,2927.773681640625,0.9824331402778625,380.6098816597515,1778.7322655438727,102,0
2420.7159301731863,2930.04052734375,0.9837602376937866,380.6123522454086,1778.7315635510192,103,0
2420.7228747655727,2935.1005859375,0.983910858631134,380.61179341893774,1778.73391911446,104,0
2420.729819357959,2940.611572265625,0.9844735264778137,380.61160360999236,1778.7339655916853,105,0
2420.736763949879,2945.1220703125,0.9850175380706787,380.60954009377264,1778.7326076961624,106,0
2420.743708542266,2950.900390625,0.9859187006950378,380.6115733844972,1778.7311482114874,107,0
2420.750653134187,2955.064453125,0.9862763285636902,380.6137943885274,1778.7301653855552,108,0
2420.7575977261076,2959.06298828125,0.9869980216026306,380.6122809123801,1778.7353726735766,109,0
2420.7645423180284,2961.375,0.9875906109809875,380.60943176880585,1778.7318673284951,110,0
2420.771486909949,2964.926513671875,0.9876345992088318,380.61099326041955,1778.7310080647453,111,0
2420.77843150187,2968.030517578125,0.9886051416397095,380.61219004435657,1778.732338492969,112,0
2420.785376093325,2971.937255859375,0.9889394044876099,380.61281420730575,1778.7341898202476,113,0
2420.7923206852456,2974.537109375,0.9889873266220093,380.6126076748192,1778.7331235166148,114,0
2420.7992652766998,2977.964599609375,0.9894117712974548,380.61099923619065,1778.7328974930547,115,0
2420.8062098686214,2982.479736328125,0.990093469619751,380.61349709970017,1778.7315703490056,116,0
2420.8131544600774,2981.3037109375,0.9901249408721924,380.6133741113339,1778.7329680370403,117,0
2420.8200990515325,2984.689453125,0.9908604025840759,380.61091689107855,1778.7336336140916,118,0
2420.827043642987,2983.91845703125,0.9907575845718384,380.61107097458665,1778.7326735486674,119,0
2420.8339882344417,2984.11572265625,0.9907892942428589,380.61110569196825,1778.7329479699356,120,0
2420.840932825431,2984.1708984375,0.990378737449646,380.61215945447924,1778.7334555303664,121,0
2420.847877416886,2980.0166015625,0.9896759390830994,380.6120112419475,1778.73348343341,122,0
2420.854822008341,2978.283935546875,0.9896686673164368,380.6127799229014,1778.7351144145864,123,0
2420.861766599331,2976.204345703125,0.9893724322319031,380.613473256079,1778.734084335132,124,0
2420.868711190319,2973.11279296875,0.9893965125083923,380.61222856244564,1778.733215961104,125,0
2420.8756557813103,2969.13134765625,0.9882297515869141,380.6102056730048,1778.7309849094117,126,0
2420.8826003722997,2962.667724609375,0.9876320958137512,380.6105219955366,1778.7336650777102,127,0
2420.8895449632882,2957.50830078125,0.9870791435241699,380.6128618131206,1778.733630284185,128,0
2420.8964895542777,2949.630615234375,0.985539972782135,380.61247528749504,1778.7327176478955,129,0
2420.903434145267,2939.8876953125,0.9842546582221985,380.614167612298,1778.7299620411673,130,0
2420.9103787357917,2928.10986328125,0.9826520085334778,380.6121953397165,1778.732125956859,131,0
2420.91732332678,2919.009765625,0.9814260005950928,380.61120594728106,1778.7309821628855,132,0
2420.9242679173035,2911.758544921875,0.9803263545036316,380.61178278255335,1778.7314061517031,133,0
2420.9312125078277,2901.86865234375,0.9786258935928345,380.6120423854502,1778.7291489226575,134,0
2420.9381570983523,2896.244140625,0.977786660194397,380.60985972667595,1778.7290095234318,135,0
2420.945101688876,2889.830322265625,0.9770982265472412,380.61131371261695,1778.7294053647931,136,0
2420.9520462793994,2885.90380859375,0.9762450456619263,380.60847148804993,1778.727748439158,137,0
2420.9589908699227,2883.30224609375,0.9758960604667664,380.60956719203296,1778.730007589142,138,0
2420.9659354604473,2881.833984375,0.9758706092834473,380.61135589500145,1778.7299362136607,139,0
2420.9728800505054,2882.764404296875,0.9763503670692444,380.61000365671856,1778.7264664982024,140,0
2420.979824641029,2884.456298828125,0.9765411615371704,380.6107826743736,1778.7278765452477,141,0
2420.9867692310872,2889.2353515625,0.9771299958229065,380.61241450030815,1778.728440218579,142,0
2420.99371382161,2890.53076171875,0.9770100116729736,380.61112130508434,1778.7301630931286,143,0
2421.000658411668,2895.828125,0.9778146743774414,380.6108590673493,1778.7288951975881,144,0
2421.007603001727,2899.697265625,0.9786248803138733,380.6097057766756,1778.729851188647,145,0
2421.0145475917852,2905.2568359375,0.9792259931564331,380.61158565357437,1778.7301488239723,146,0
2421.0214921818433,2910.59912109375,0.9801058173179626,380.6120961836481,1778.7301210975004,147,0
2421.0284367719014,2919.39697265625,0.9813873767852783,380.61072550863554,1778.730718607442,148,0
2421.035381361494,2924.87841796875,0.9819658994674683,380.612223938903,1778.7314503071896,149,0
2421.042325951553,2934.77978515625,0.9841306209564209,380.6122158648378,1778.7323877146498,150,0
2421.0492705411443,2941.94384765625,0.9843188524246216,380.61142257200333,1778.7307294607488,151,0
2421.0562151312024,2951.099853515625,0.986376166343689,380.61486879514143,1778.7331658038581,152,0
2421.063159720795,2958.378662109375,0.987077534198761,380.6119508212139,1778.732544456914,153,0
2421.070104310388,2968.198974609375,0.9884234070777893,380.61251467480434,1778.732296334988,154,0
2421.0770488999797,2974.827392578125,0.9892846345901489,380.61343654058965,1778.7336159953354,155,0
2421.083993489571,2982.51123046875,0.9903765916824341,380.61076421734174,1778.733199363972,156,0
2421.0909380791645,2989.5009765625,0.991408109664917,380.6111614733786,1778.729237306917,157,0
2421.097882668757,2993.19482421875,0.9922342300415039,380.61230639447547,1778.7331762995339,158,0
2421.1048272578846,2996.515869140625,0.9925022125244141,380.61069781655783,1778.7336505384712,159,0
2421.111771847476,3002.0068359375,0.9933002591133118,380.61114278031175,1778.7340425375644,160,0
2421.118716436603,3003.319580078125,0.9932690262794495,380.61219968279323,1778.7355738839742,161,0
2421.125661026196,3006.992919921875,0.9939637184143066,380.6139678505032,1778.7347806870955,162,0
2421.1326056153225,3007.813232421875,0.9939692616462708,380.6117505967734,1778.7307095065237,163,0
2421.139550204449,3005.4794921875,0.9938521385192871,380.6117051086358,1778.7352164641159,164,0
2421.1464947935756,3004.08203125,0.9939543008804321,380.61249435684033,1778.7323551843824,165,0
2421.1534393827023,3002.1298828125,0.9932146668434143,380.6130499412323,1778.7357031104445,166,0
2421.160383971829,2996.39111328125,0.9924225211143494,380.61098639610043,1778.7334696305302,167,0
2421.167328560956,2992.24755859375,0.9917007088661194,380.60991434872267,1778.730967598327,168,0
2421.1742731500826,2985.325439453125,0.9912474751472473,380.61531855897005,1778.7340021396165,169,0
2421.1812177387437,2978.162109375,0.9898514151573181,380.612747721,1778.7305369048618,170,0
2421.1881623278714,2970.90478515625,0.9889737367630005,380.61082828059995,1778.732041577234,171,0
2421.1951069165325,2961.7080078125,0.9874383211135864,380.6124623307231,1778.7311686601115,172,0
2421.20205150566,2950.725830078125,0.9860115051269531,380.6110832627706,1778.7326707203451,173,0
2421.2089960943204,2942.35498046875,0.9843873381614685,380.6112951468239,1778.7323962147916,174,0
2421.215940682981,2932.13037109375,0.9832236170768738,380.6106391587929,1778.7319567872198,175,0
2421.2228852716426,2924.414794921875,0.9823545813560486,380.6103192736753,1778.7309405140966,176,0
2421.2298298603037,2917.12744140625,0.9810338020324707,380.6108566639894,1778.7323214408414,177,0
2421.2367744489648,2908.742919921875,0.979753851890564,380.6109189007564,1778.7306657334464,178,0
2421.2437190376245,2902.169677734375,0.9789758324623108,380.61152356325806,1778.7296381889125,179,0
2421.250663626286,2894.08154296875,0.977502167224884,380.61040566815245,1778.729001961801,180,0
2421.257608214482,2889.321044921875,0.9772007465362549,380.61052753109533,1778.7282517722415,181,0
2421.2645528031435,2883.13427734375,0.9757786393165588,380.60800406853514,1778.7283129225793,182,0
2421.2714973913385,2876.534912109375,0.9751898646354675,380.6080426583884,1778.730194726043,183,0
2421.278441979999,2873.339599609375,0.9746559262275696,380.60903150872355,1778.730149669967,184,0
2421.2853865681955,2869.1279296875,0.9739304780960083,380.6090715144098,1778.7284151423237,185,0
2421.292331156391,2865.09619140625,0.9732916355133057,380.6087151128156,1778.7303640464,186,0
2421.2992757445872,2861.782470703125,0.9729049205780029,380.6109740135067,1778.7296154661897,187,0
2421.306220332782,2858.369873046875,0.9723544120788574,380.60728040497906,1778.7287255558392,188,0
2421.313164920977,2857.3837890625,0.9724165201187134,380.60897695235855,1778.7293564371619,189,0
2421.3201095091727,2854.864013671875,0.9719540476799011,380.60731608042227,1778.7283946621026,190,0
2421.327054097368,2853.593505859375,0.9717242121696472,380.60699557181835,1778.7277432053638,191,0
2421.333998685097,2856.120849609375,0.9720607995986938,380.6102730634157,1778.7286136431117,192,0
2421.3409432732933,2858.299072265625,0.9725695252418518,380.60840103997793,1778.7278627627109,193,0
2421.347887861022,2857.666748046875,0.9727444648742676,380.6116329934676,1778.7283757610955,194,0
2421.3548324492185,2862.8076171875,0.9733118414878845,380.61053279454865,1778.7288791191215,195,0
2421.3617770369483,2870.984130859375,0.9744566679000854,380.60979292757435,1778.7292696910793,196,0
2421.368721624677,2873.377685546875,0.9747812747955322,380.61129643733665,1778.7290561244647,197,0
2421.375666212408,2880.8369140625,0.975576639175415,380.6106703656344,1778.731638506869,198,0
2421.3826108001376,2887.846435546875,0.9771836996078491,380.60970377755,1778.7336398259488,199,0
2421.3895553878683,2894.491455078125,0.9776709079742432,380.61010131813134,1778.73236995256,200,0
2421.396499975597,2904.525146484375,0.9790070056915283,380.6113650195145,1778.730787369026,201,0
2421.4034445633265,2912.344482421875,0.9801878929138184,380.61143826544793,1778.730663421613,202,0
2421.4103891510567,2921.4287109375,0.9816019535064697,380.61038161629716,1778.7304599191161,203,0
2421.417333738321,2932.2392578125,0.9832890629768372,380.6098951550612,1778.7304416040456,204,0
